 Be Density=1.848 Thickness=1141.5 microns
 Wavelength (nm), Transmission
   0.30000      0.19448    
   0.30020      0.19381    
   0.30040      0.19314    
   0.30060      0.19248    
   0.30080      0.19181    
   0.30100      0.19114    
   0.30120      0.19048    
   0.30140      0.18982    
   0.30160      0.18916    
   0.30180      0.18850    
   0.30200      0.18784    
   0.30220      0.18718    
   0.30240      0.18653    
   0.30260      0.18589    
   0.30280      0.18524    
   0.30300      0.18460    
   0.30320      0.18395    
   0.30340      0.18331    
   0.30360      0.18267    
   0.30380      0.18203    
   0.30400      0.18139    
   0.30420      0.18076    
   0.30440      0.18012    
   0.30460      0.17949    
   0.30480      0.17886    
   0.30500      0.17822    
   0.30520      0.17759    
   0.30540      0.17697    
   0.30560      0.17634    
   0.30580      0.17571    
   0.30600      0.17509    
   0.30620      0.17446    
   0.30640      0.17384    
   0.30660      0.17322    
   0.30680      0.17260    
   0.30700      0.17199    
   0.30720      0.17137    
   0.30740      0.17075    
   0.30760      0.17014    
   0.30780      0.16953    
   0.30800      0.16892    
   0.30820      0.16831    
   0.30840      0.16770    
   0.30860      0.16709    
   0.30880      0.16649    
   0.30900      0.16588    
   0.30920      0.16528    
   0.30940      0.16468    
   0.30960      0.16408    
   0.30980      0.16348    
   0.31000      0.16288    
   0.31020      0.16228    
   0.31040      0.16169    
   0.31060      0.16110    
   0.31080      0.16050    
   0.31100      0.15991    
   0.31120      0.15932    
   0.31140      0.15874    
   0.31160      0.15815    
   0.31180      0.15756    
   0.31200      0.15698    
   0.31220      0.15640    
   0.31240      0.15582    
   0.31260      0.15524    
   0.31280      0.15466    
   0.31300      0.15408    
   0.31320      0.15351    
   0.31340      0.15293    
   0.31360      0.15236    
   0.31380      0.15179    
   0.31400      0.15122    
   0.31420      0.15065    
   0.31440      0.15008    
   0.31460      0.14951    
   0.31480      0.14895    
   0.31500      0.14839    
   0.31520      0.14782    
   0.31540      0.14726    
   0.31560      0.14670    
   0.31580      0.14614    
   0.31600      0.14559    
   0.31620      0.14503    
   0.31640      0.14448    
   0.31660      0.14393    
   0.31680      0.14337    
   0.31700      0.14282    
   0.31720      0.14228    
   0.31740      0.14173    
   0.31760      0.14118    
   0.31780      0.14064    
   0.31800      0.14009    
   0.31820      0.13955    
   0.31840      0.13901    
   0.31860      0.13847    
   0.31880      0.13794    
   0.31900      0.13740    
   0.31920      0.13686    
   0.31940      0.13633    
   0.31960      0.13580    
   0.31980      0.13527    
   0.32000      0.13474    
   0.32020      0.13421    
   0.32040      0.13368    
   0.32060      0.13316    
   0.32080      0.13263    
   0.32100      0.13211    
   0.32120      0.13159    
   0.32140      0.13107    
   0.32160      0.13055    
   0.32180      0.13003    
   0.32200      0.12952    
   0.32220      0.12900    
   0.32240      0.12849    
   0.32260      0.12798    
   0.32280      0.12747    
   0.32300      0.12696    
   0.32320      0.12645    
   0.32340      0.12594    
   0.32360      0.12544    
   0.32380      0.12493    
   0.32400      0.12443    
   0.32420      0.12393    
   0.32440      0.12343    
   0.32460      0.12293    
   0.32480      0.12244    
   0.32500      0.12194    
   0.32520      0.12145    
   0.32540      0.12095    
   0.32560      0.12046    
   0.32580      0.11997    
   0.32600      0.11948    
   0.32620      0.11899    
   0.32640      0.11851    
   0.32660      0.11802    
   0.32680      0.11754    
   0.32700      0.11706    
   0.32720      0.11658    
   0.32740      0.11610    
   0.32760      0.11562    
   0.32780      0.11514    
   0.32800      0.11467    
   0.32820      0.11419    
   0.32840      0.11372    
   0.32860      0.11325    
   0.32880      0.11278    
   0.32900      0.11231    
   0.32920      0.11184    
   0.32940      0.11137    
   0.32960      0.11091    
   0.32980      0.11045    
   0.33000      0.10998    
   0.33020      0.10952    
   0.33040      0.10906    
   0.33060      0.10860    
   0.33080      0.10815    
   0.33100      0.10769    
   0.33120      0.10724    
   0.33140      0.10679    
   0.33160      0.10633    
   0.33180      0.10588    
   0.33200      0.10543    
   0.33220      0.10499    
   0.33240      0.10454    
   0.33260      0.10410    
   0.33280      0.10365    
   0.33300      0.10321    
   0.33320      0.10277    
   0.33340      0.10233    
   0.33360      0.10189    
   0.33380      0.10145    
   0.33400      0.10102    
   0.33420      0.10058    
   0.33440      0.10015    
   0.33460      0.99717E-01
   0.33480      0.99286E-01
   0.33500      0.98857E-01
   0.33520      0.98429E-01
   0.33540      0.98002E-01
   0.33560      0.97577E-01
   0.33580      0.97152E-01
   0.33600      0.96730E-01
   0.33620      0.96308E-01
   0.33640      0.95888E-01
   0.33660      0.95469E-01
   0.33680      0.95051E-01
   0.33700      0.94635E-01
   0.33720      0.94220E-01
   0.33740      0.93806E-01
   0.33760      0.93394E-01
   0.33780      0.92983E-01
   0.33800      0.92573E-01
   0.33820      0.92164E-01
   0.33840      0.91757E-01
   0.33860      0.91350E-01
   0.33880      0.90946E-01
   0.33900      0.90542E-01
   0.33920      0.90140E-01
   0.33940      0.89739E-01
   0.33960      0.89340E-01
   0.33980      0.88941E-01
   0.34000      0.88544E-01
   0.34020      0.88148E-01
   0.34040      0.87754E-01
   0.34060      0.87361E-01
   0.34080      0.86968E-01
   0.34100      0.86578E-01
   0.34120      0.86188E-01
   0.34140      0.85800E-01
   0.34160      0.85413E-01
   0.34180      0.85027E-01
   0.34200      0.84643E-01
   0.34220      0.84260E-01
   0.34240      0.83878E-01
   0.34260      0.83497E-01
   0.34280      0.83118E-01
   0.34300      0.82739E-01
   0.34320      0.82362E-01
   0.34340      0.81987E-01
   0.34360      0.81612E-01
   0.34380      0.81239E-01
   0.34400      0.80867E-01
   0.34420      0.80496E-01
   0.34440      0.80126E-01
   0.34460      0.79758E-01
   0.34480      0.79391E-01
   0.34500      0.79025E-01
   0.34520      0.78660E-01
   0.34540      0.78297E-01
   0.34560      0.77935E-01
   0.34580      0.77574E-01
   0.34600      0.77214E-01
   0.34620      0.76856E-01
   0.34640      0.76498E-01
   0.34660      0.76142E-01
   0.34680      0.75787E-01
   0.34700      0.75434E-01
   0.34720      0.75081E-01
   0.34740      0.74730E-01
   0.34760      0.74380E-01
   0.34780      0.74031E-01
   0.34800      0.73683E-01
   0.34820      0.73337E-01
   0.34840      0.72992E-01
   0.34860      0.72648E-01
   0.34880      0.72305E-01
   0.34900      0.71963E-01
   0.34920      0.71623E-01
   0.34940      0.71283E-01
   0.34960      0.70945E-01
   0.34980      0.70609E-01
   0.35000      0.70273E-01
   0.35020      0.69938E-01
   0.35040      0.69605E-01
   0.35060      0.69273E-01
   0.35080      0.68942E-01
   0.35100      0.68612E-01
   0.35120      0.68283E-01
   0.35140      0.67956E-01
   0.35160      0.67630E-01
   0.35180      0.67304E-01
   0.35200      0.66980E-01
   0.35220      0.66658E-01
   0.35240      0.66336E-01
   0.35260      0.66016E-01
   0.35280      0.65696E-01
   0.35300      0.65378E-01
   0.35320      0.65061E-01
   0.35340      0.64745E-01
   0.35360      0.64430E-01
   0.35380      0.64117E-01
   0.35400      0.63804E-01
   0.35420      0.63493E-01
   0.35440      0.63183E-01
   0.35460      0.62874E-01
   0.35480      0.62566E-01
   0.35500      0.62259E-01
   0.35520      0.61954E-01
   0.35540      0.61649E-01
   0.35560      0.61346E-01
   0.35580      0.61043E-01
   0.35600      0.60742E-01
   0.35620      0.60442E-01
   0.35640      0.60143E-01
   0.35660      0.59846E-01
   0.35680      0.59549E-01
   0.35700      0.59254E-01
   0.35720      0.58959E-01
   0.35740      0.58666E-01
   0.35760      0.58374E-01
   0.35780      0.58083E-01
   0.35800      0.57793E-01
   0.35820      0.57503E-01
   0.35840      0.57216E-01
   0.35860      0.56929E-01
   0.35880      0.56643E-01
   0.35900      0.56359E-01
   0.35920      0.56075E-01
   0.35940      0.55793E-01
   0.35960      0.55512E-01
   0.35980      0.55232E-01
   0.36000      0.54952E-01
   0.36020      0.54674E-01
   0.36040      0.54397E-01
   0.36060      0.54121E-01
   0.36080      0.53846E-01
   0.36100      0.53573E-01
   0.36120      0.53300E-01
   0.36140      0.53029E-01
   0.36160      0.52758E-01
   0.36180      0.52488E-01
   0.36200      0.52220E-01
   0.36220      0.51952E-01
   0.36240      0.51686E-01
   0.36260      0.51421E-01
   0.36280      0.51157E-01
   0.36300      0.50894E-01
   0.36320      0.50631E-01
   0.36340      0.50370E-01
   0.36360      0.50110E-01
   0.36380      0.49851E-01
   0.36400      0.49593E-01
   0.36420      0.49336E-01
   0.36440      0.49080E-01
   0.36460      0.48825E-01
   0.36480      0.48571E-01
   0.36500      0.48318E-01
   0.36520      0.48066E-01
   0.36540      0.47816E-01
   0.36560      0.47566E-01
   0.36580      0.47317E-01
   0.36600      0.47069E-01
   0.36620      0.46822E-01
   0.36640      0.46576E-01
   0.36660      0.46332E-01
   0.36680      0.46088E-01
   0.36700      0.45845E-01
   0.36720      0.45603E-01
   0.36740      0.45362E-01
   0.36760      0.45123E-01
   0.36780      0.44883E-01
   0.36800      0.44646E-01
   0.36820      0.44409E-01
   0.36840      0.44173E-01
   0.36860      0.43938E-01
   0.36880      0.43704E-01
   0.36900      0.43471E-01
   0.36920      0.43239E-01
   0.36940      0.43008E-01
   0.36960      0.42778E-01
   0.36980      0.42549E-01
   0.37000      0.42320E-01
   0.37020      0.42093E-01
   0.37040      0.41867E-01
   0.37060      0.41642E-01
   0.37080      0.41417E-01
   0.37100      0.41194E-01
   0.37120      0.40972E-01
   0.37140      0.40750E-01
   0.37160      0.40529E-01
   0.37180      0.40310E-01
   0.37200      0.40091E-01
   0.37220      0.39873E-01
   0.37240      0.39656E-01
   0.37260      0.39440E-01
   0.37280      0.39226E-01
   0.37300      0.39011E-01
   0.37320      0.38798E-01
   0.37340      0.38586E-01
   0.37360      0.38375E-01
   0.37380      0.38165E-01
   0.37400      0.37955E-01
   0.37420      0.37747E-01
   0.37440      0.37539E-01
   0.37460      0.37332E-01
   0.37480      0.37126E-01
   0.37500      0.36922E-01
   0.37520      0.36718E-01
   0.37540      0.36514E-01
   0.37560      0.36312E-01
   0.37580      0.36111E-01
   0.37600      0.35910E-01
   0.37620      0.35711E-01
   0.37640      0.35512E-01
   0.37660      0.35314E-01
   0.37680      0.35117E-01
   0.37700      0.34921E-01
   0.37720      0.34726E-01
   0.37740      0.34531E-01
   0.37760      0.34338E-01
   0.37780      0.34145E-01
   0.37800      0.33954E-01
   0.37820      0.33763E-01
   0.37840      0.33573E-01
   0.37860      0.33384E-01
   0.37880      0.33195E-01
   0.37900      0.33008E-01
   0.37920      0.32821E-01
   0.37940      0.32635E-01
   0.37960      0.32450E-01
   0.37980      0.32266E-01
   0.38000      0.32083E-01
   0.38020      0.31901E-01
   0.38040      0.31719E-01
   0.38060      0.31538E-01
   0.38080      0.31358E-01
   0.38100      0.31179E-01
   0.38120      0.31001E-01
   0.38140      0.30823E-01
   0.38160      0.30646E-01
   0.38180      0.30471E-01
   0.38200      0.30296E-01
   0.38220      0.30121E-01
   0.38240      0.29948E-01
   0.38260      0.29775E-01
   0.38280      0.29603E-01
   0.38300      0.29432E-01
   0.38320      0.29262E-01
   0.38340      0.29093E-01
   0.38360      0.28924E-01
   0.38380      0.28756E-01
   0.38400      0.28589E-01
   0.38420      0.28423E-01
   0.38440      0.28257E-01
   0.38460      0.28092E-01
   0.38480      0.27928E-01
   0.38500      0.27765E-01
   0.38520      0.27603E-01
   0.38540      0.27441E-01
   0.38560      0.27280E-01
   0.38580      0.27120E-01
   0.38600      0.26961E-01
   0.38620      0.26802E-01
   0.38640      0.26644E-01
   0.38660      0.26487E-01
   0.38680      0.26331E-01
   0.38700      0.26175E-01
   0.38720      0.26020E-01
   0.38740      0.25866E-01
   0.38760      0.25713E-01
   0.38780      0.25560E-01
   0.38800      0.25408E-01
   0.38820      0.25257E-01
   0.38840      0.25107E-01
   0.38860      0.24957E-01
   0.38880      0.24808E-01
   0.38900      0.24660E-01
   0.38920      0.24512E-01
   0.38940      0.24366E-01
   0.38960      0.24219E-01
   0.38980      0.24074E-01
   0.39000      0.23929E-01
   0.39020      0.23785E-01
   0.39040      0.23642E-01
   0.39060      0.23500E-01
   0.39080      0.23358E-01
   0.39100      0.23217E-01
   0.39120      0.23076E-01
   0.39140      0.22936E-01
   0.39160      0.22797E-01
   0.39180      0.22659E-01
   0.39200      0.22521E-01
   0.39220      0.22384E-01
   0.39240      0.22248E-01
   0.39260      0.22112E-01
   0.39280      0.21977E-01
   0.39300      0.21843E-01
   0.39320      0.21709E-01
   0.39340      0.21576E-01
   0.39360      0.21444E-01
   0.39380      0.21313E-01
   0.39400      0.21182E-01
   0.39420      0.21051E-01
   0.39440      0.20922E-01
   0.39460      0.20793E-01
   0.39480      0.20664E-01
   0.39500      0.20537E-01
   0.39520      0.20410E-01
   0.39540      0.20283E-01
   0.39560      0.20158E-01
   0.39580      0.20033E-01
   0.39600      0.19908E-01
   0.39620      0.19784E-01
   0.39640      0.19661E-01
   0.39660      0.19539E-01
   0.39680      0.19417E-01
   0.39700      0.19295E-01
   0.39720      0.19175E-01
   0.39740      0.19055E-01
   0.39760      0.18935E-01
   0.39780      0.18817E-01
   0.39800      0.18698E-01
   0.39820      0.18581E-01
   0.39840      0.18464E-01
   0.39860      0.18348E-01
   0.39880      0.18232E-01
   0.39900      0.18117E-01
   0.39920      0.18003E-01
   0.39940      0.17889E-01
   0.39960      0.17775E-01
   0.39980      0.17663E-01
   0.40000      0.17550E-01
